radius,n_weightings,kappa_deployed,routine_emergency_reversal,emergency_flag_non_identified
0.0,1,1.0,0.0,0.0
0.05,7,0.69,0.0,0.139
0.1,19,0.458,0.005,0.215
0.15,37,0.31,0.026,0.29
0.2,61,0.221,0.062,0.344
0.25,91,0.158,0.117,0.399
0.3,127,0.122,0.177,0.457
0.35,153,0.102,0.235,0.505
0.4,179,0.088,0.279,0.544
0.45,195,0.078,0.307,0.56
0.5,208,0.065,0.333,0.581
0.55,218,0.062,0.345,0.592
0.6,225,0.058,0.357,0.598
